#Theta DD DR RR XI factor=103.708998549 
0.050323978983 0 5 364 -1.84914831178
0.0763011640511 0 7 828 -0.753533791885
0.115687744753 0 17 1980 -0.780861591239
0.175405637024 0 37 4370 -0.756170684805
0.265949842531 2 116 10432 0.755619737024
0.403232871773 2 268 23350 -0.459396593668
0.611381256445 8 542 53470 0.506712111707
0.926975618552 12 1162 120784 0.0731136899962
1.40547945874 32 2652 273444 0.247031479414
2.13098647839 74 6022 619802 0.268863271815
3.23099945918 156 13782 1403064 0.15843607938
4.89883798472 324 30643 3191350 0.100346430838
7.42761300449 692 69474 7209140 0.0335445121883
11.2617390321 1506 155010 16201178 0.0152570497141
17.0750368861 3226 343452 36027696 -0.0142391858002
25.8891529834 7104 747011 78725580 0.00240743978784
39.2531065478 14932 1581774 166710784 -0.00465262688083
59.5155188986 29674 3141776 330927082 -0.00475459191737
90.2373672122 53028 5579277 583004272 -0.00667670043128
136.817801341 75010 7795784 815069184 0.00595969651812
207.443006619 100858 10584579 1113270342 0.0023552869176
