#Theta DD DR RR XI factor=118.646226415 
0.050323978983 0 6 450 -2.16389937107
0.0763011640511 0 6 1038 -0.371632675319
0.115687744753 0 18 2508 -0.703055881556
0.175405637024 0 37 5442 -0.613344497375
0.265949842531 0 125 12796 -1.31803349514
0.403232871773 0 272 28832 -1.23860804557
0.611381256445 12 595 65688 1.42220976551
0.926975618552 10 1258 148730 -0.0606107391579
1.40547945874 30 2835 335664 0.253967382569
2.13098647839 74 6513 760284 0.337361901428
3.23099945918 136 14638 1721430 0.0943431642631
4.89883798472 332 32815 3909756 0.203732391101
7.42761300449 654 74063 8835696 0.0529007960279
11.2617390321 1480 165680 19852640 0.0691030733472
17.0750368861 2990 366298 44165184 -0.015047034098
25.8891529834 6728 796311 96474800 0.0230710479479
39.2531065478 14150 1687110 204192922 0.0149024242752
59.5155188986 27994 3346183 404653248 0.0116118478313
90.2373672122 50444 5942359 710680740 0.0150564162277
136.817801341 70556 8305660 991414468 0.0138748213628
207.443006619 96516 11329716 1363857664 0.0249661352701
