#Theta DD DR RR XI factor=118.566329966 
0.050323978983 0 7 450 -2.68873026562
0.0763011640511 0 6 1038 -0.370709016952
0.115687744753 0 22 2508 -1.08011105204
0.175405637024 0 43 5442 -0.873705324716
0.265949842531 2 123 12796 0.917836201286
0.403232871773 2 281 28832 -0.335957555414
0.611381256445 8 584 65688 0.603859508781
0.926975618552 14 1249 148730 0.331896404005
1.40547945874 36 2802 335664 0.528222783883
2.13098647839 72 6584 760284 0.277760334723
3.23099945918 140 14723 1721430 0.115161401885
4.89883798472 330 32928 3909756 0.189419337752
7.42761300449 690 74113 8835696 0.108773055294
11.2617390321 1418 164879 19852640 0.0346881899914
17.0750368861 2914 364568 44165184 -0.0299072132705
25.8891529834 6668 792484 96474800 0.0237319566349
39.2531065478 14004 1682496 204192922 0.0102160569304
59.5155188986 28116 3339091 404653248 0.0200164742376
90.2373672122 50182 5940497 710680740 0.010485955381
136.817801341 70748 8300993 991414468 0.0177034989039
207.443006619 95968 11310606 1363857664 0.022626469872
