#Theta DD DR RR XI factor=267.585106383 
0.050323978983 0 4 450 -3.75706855792
0.0763011640511 0 1 1038 0.484421760341
0.115687744753 0 9 2508 -0.920467270691
0.175405637024 0 15 5442 -0.475110840038
0.265949842531 0 68 12796 -1.84398049923
0.403232871773 0 128 28832 -1.3758943963
0.611381256445 0 262 65688 -1.1345541917
0.926975618552 2 554 148730 -0.0305971865552
1.40547945874 4 1258 335664 -0.152452961973
2.13098647839 16 2870 760284 0.486626202695
3.23099945918 34 6552 1721430 0.377276797389
4.89883798472 72 14401 3909756 0.347361468422
7.42761300449 132 32657 8835696 0.0916824809904
11.2617390321 320 72889 19852640 0.189253967848
17.0750368861 544 160730 44165184 -0.0656931712529
25.8891529834 1308 350993 96474800 0.0237257991651
39.2531065478 2706 743362 204192922 0.000598276170383
59.5155188986 5738 1475133 404653248 0.0643935835169
90.2373672122 9926 2625571 710680740 0.0228973539934
136.817801341 14044 3674061 991414468 0.0310082098274
207.443006619 19236 5029550 1363857664 0.0363119539035
