#Theta DD DR RR XI factor=162.791897891 
0.050323978983 0 14 1274 -2.5778439097
0.0763011640511 0 20 2902 -1.24385799988
0.115687744753 0 38 6902 -0.792550599788
0.175405637024 0 80 15570 -0.672877563429
0.265949842531 2 235 34902 0.326405708245
0.403232871773 2 547 79948 -0.564666186208
0.611381256445 12 1158 183314 0.678084536436
0.926975618552 14 2560 413576 -0.118241118771
1.40547945874 52 5793 929514 0.453430046263
2.13098647839 108 12998 2113066 0.351743693985
3.23099945918 202 29546 4787384 0.108812657947
4.89883798472 484 66399 10846716 0.189445295797
7.42761300449 952 150079 24533352 0.0366523838601
11.2617390321 2120 334916 55122880 0.0410393239987
17.0750368861 4368 741153 122561080 -0.0243884647267
25.8891529834 9776 1611799 267724540 0.00756245385519
39.2531065478 20720 3414529 566301910 0.0065186133753
59.5155188986 41326 6776167 1123151204 0.0107997087831
90.2373672122 73692 12008275 1973443116 0.00844713473192
136.817801341 103764 16768837 2753602792 0.0159107613896
207.443006619 140974 22900375 3788109730 0.0179770838077
