#Theta DD DR RR XI factor=121.664529915 
0.050323978983 0 6 444 -2.28823053823
0.0763011640511 0 7 998 -0.706716852508
0.115687744753 0 17 2400 -0.723580840456
0.175405637024 0 37 5286 -0.703211353325
0.265949842531 2 116 12444 1.11076380091
0.403232871773 2 273 28008 -0.314778550939
0.611381256445 10 557 63814 1.19569831179
0.926975618552 10 1177 144332 0.0412678752767
1.40547945874 36 2699 325728 0.619732260466
2.13098647839 74 6130 737746 0.462904500137
3.23099945918 156 13944 1670072 0.351029065021
4.89883798472 324 31246 3792492 0.259819595275
7.42761300449 682 70643 8567462 0.171942060894
11.2617390321 1456 158257 19240132 0.118694216479
17.0750368861 3154 350489 42759718 0.0973318012714
25.8891529834 6878 763651 93255472 0.0991568789802
39.2531065478 14340 1614987 196891694 0.0821913953859
59.5155188986 28524 3203396 388779630 0.0810739381297
90.2373672122 50736 5680853 678632784 0.0697336163748
136.817801341 71984 7914356 936982820 0.0818752938004
207.443006619 97380 10806030 1283569178 0.0744735286942
