#Theta DD DR RR XI factor=110.597361809 
0.050323978983 0 6 450 -1.94926298157
0.0763011640511 0 8 1038 -0.704776289927
0.115687744753 0 18 2508 -0.587521939843
0.175405637024 0 42 5442 -0.70712576111
0.265949842531 2 129 12796 0.681887584519
0.403232871773 2 309 28832 -0.522114897328
0.611381256445 10 633 65688 0.730567292975
0.926975618552 12 1329 148730 0.0103780648222
1.40547945874 40 3064 335664 0.438517161206
2.13098647839 82 7000 760284 0.28269252369
3.23099945918 168 15752 1721430 0.169689824936
4.89883798472 388 35261 3909756 0.218974818091
7.42761300449 746 79683 8835696 0.0379304654126
11.2617390321 1684 178166 19852640 0.052465183237
17.0750368861 3554 395018 44165184 0.00591008814691
25.8891529834 7844 858911 96474800 0.0252322174384
39.2531065478 16416 1819820 204192922 0.0120238354292
59.5155188986 32650 3613922 404653248 0.0114672767188
90.2373672122 58548 6422883 710680740 0.00860999404784
136.817801341 82718 8995820 991414468 0.0134904556115
207.443006619 111872 12305193 1363857664 0.00763070323962
