#Theta DD DR RR XI factor=105.910228109 
0.050323978983 0 5 370 -1.86243859754
0.0763011640511 0 7 836 -0.773616260197
0.115687744753 0 17 1988 -0.811341929428
0.175405637024 0 38 4394 -0.831856471615
0.265949842531 2 114 10510 0.836957262353
0.403232871773 2 263 23508 -0.415468229927
0.611381256445 8 539 53852 0.546248708372
0.926975618552 12 1144 121638 0.114430647526
1.40547945874 32 2619 275414 0.289017517425
2.13098647839 72 5947 624024 0.275550377829
3.23099945918 154 13594 1412872 0.184587907864
4.89883798472 318 30252 3213924 0.116035743051
7.42761300449 682 68596 7260560 0.0524066879709
11.2617390321 1446 153162 16318186 0.00582719092134
17.0750368861 3142 339892 36286820 -0.0128288618065
25.8891529834 6926 740825 79285626 0.000662354536559
39.2531065478 14522 1568838 167883312 -0.00914764743547
59.5155188986 28920 3114958 333207136 -0.00663170265488
90.2373672122 51600 5527697 586931414 -0.00877769204031
136.817801341 73054 7727281 820562986 0.00391413524375
207.443006619 98554 10497082 1120656424 0.00235363814925
