#Theta DD DR RR XI factor=95.5287433155 
0.050323978983 0 6 364 -2.14929923018
0.0763011640511 0 7 828 -0.615220297605
0.115687744753 0 19 1980 -0.833379922217
0.175405637024 0 39 4370 -0.705089697622
0.265949842531 2 124 10432 0.478561470153
0.403232871773 2 287 23350 -0.566681672986
0.611381256445 10 579 53470 0.637836604358
0.926975618552 16 1255 120784 0.223694422019
1.40547945874 36 2869 273444 0.196847397037
2.13098647839 96 6501 619802 0.409499156437
3.23099945918 178 14897 1403064 0.129190460277
4.89883798472 378 33228 3191350 0.0916295161649
7.42761300449 778 75349 7209140 -0.0120713730342
11.2617390321 1794 168083 16201178 0.0283461775924
17.0750368861 3742 372375 36027696 -0.0268907984768
25.8891529834 8462 811517 78725580 0.0114473626809
39.2531065478 17666 1717425 166710784 -0.00120437928216
59.5155188986 35030 3412953 330927082 -0.00443735204904
90.2373672122 62532 6052226 583004272 -0.00457628278287
136.817801341 88084 8455579 815069184 0.00417052306064
207.443006619 118720 11472622 1113270342 0.00426488081351
