#Theta DD DR RR XI factor=105.39159292 
0.050323978983 0 5 364 -1.89537343188
0.0763011640511 0 7 828 -0.781983455175
0.115687744753 0 17 1980 -0.809754625905
0.175405637024 0 37 4370 -0.784663129544
0.265949842531 2 114 10432 0.826063317747
0.403232871773 2 262 23350 -0.413722439987
0.611381256445 8 538 53470 0.541008956125
0.926975618552 12 1143 120784 0.108851113422
1.40547945874 32 2613 273444 0.285630501541
2.13098647839 72 5934 619802 0.272258722976
3.23099945918 154 13564 1403064 0.181416241478
4.89883798472 318 30181 3191350 0.113385246707
7.42761300449 682 68413 7209140 0.050500951075
11.2617390321 1446 152733 16201178 0.00425354996272
17.0750368861 3140 338574 36027696 -0.0127905067202
25.8891529834 6912 736882 78725580 0.00225478590091
39.2531065478 14480 1560061 166710784 -0.00773115851826
59.5155188986 28846 3099461 330927082 -0.00599368234481
90.2373672122 51486 5502878 583004272 -0.00863615088715
136.817801341 72890 7690103 815069184 0.00459135896805
207.443006619 98346 10451705 1113270342 0.00232992009778
