#Theta DD DR RR XI factor=103.922021661 
0.050323978983 0 5 370 -1.80870328813
0.0763011640511 0 7 836 -0.740320936901
0.115687744753 0 17 1988 -0.777338398623
0.175405637024 0 38 4394 -0.797467830271
0.265949842531 2 116 10510 0.76114787315
0.403232871773 2 269 23508 -0.459523331689
0.611381256445 8 545 53852 0.500915269223
0.926975618552 12 1167 121638 0.0713711214956
1.40547945874 32 2668 275414 0.241379389472
2.13098647839 74 6050 624024 0.265617580851
3.23099945918 156 13842 1412872 0.156179370649
4.89883798472 326 30772 3213924 0.105440429196
7.42761300449 696 69795 7260560 0.0372886471941
11.2617390321 1506 155724 16318186 0.0132587529279
17.0750368861 3236 345454 36286820 -0.0155876637606
25.8891529834 7150 752384 79285626 0.00158373473533
39.2531065478 15042 1593411 167883312 -0.00504685710199
59.5155188986 29854 3164002 333207136 -0.00598727878728
90.2373672122 53350 5615432 586931414 -0.00687314295084
136.817801341 75442 7848055 820562986 0.00505628731324
207.443006619 101376 10645718 1120656424 0.00254004323425
