#Theta DD DR RR XI factor=98.695441989 
0.050323978983 0 6 364 -2.25369588975
0.0763011640511 0 7 828 -0.66876351189
0.115687744753 0 19 1980 -0.894154947263
0.175405637024 0 37 4370 -0.671272930705
0.265949842531 2 122 10432 0.559038793471
0.403232871773 2 275 23350 -0.490403107286
0.611381256445 10 565 53470 0.735965087833
0.926975618552 14 1216 120784 0.141804782541
1.40547945874 36 2788 273444 0.269841960942
2.13098647839 88 6293 619802 0.37884793988
3.23099945918 174 14409 1403064 0.180858649097
4.89883798472 370 32213 3191350 0.136898132168
7.42761300449 748 73045 7209140 0.0106578595146
11.2617390321 1688 163208 16201178 0.0264092266916
17.0750368861 3564 361695 36027696 -0.0180811801084
25.8891529834 8040 789639 78725580 0.0149124786696
39.2531065478 16668 1670599 166710784 -0.00414332627896
59.5155188986 33088 3321882 330927082 -0.00749069553806
90.2373672122 59102 5894612 583004272 -0.00829876403547
136.817801341 83622 8244664 815069184 0.00268938255739
207.443006619 113278 11207228 1113270342 0.00402682089465
