#Theta DD DR RR XI factor=161.359185919 
0.050323978983 0 12 1274 -2.03973348669
0.0763011640511 0 22 2902 -1.44652108216
0.115687744753 0 38 6902 -0.776774576907
0.175405637024 0 76 15570 -0.575247030162
0.265949842531 0 234 34902 -1.16366107988
0.403232871773 2 549 79948 -0.564752243683
0.611381256445 10 1169 183314 0.362351441382
0.926975618552 16 2558 413576 0.0112458047021
1.40547945874 50 5837 929514 0.374008576097
2.13098647839 112 13118 2113066 0.376593314565
3.23099945918 214 29845 4787384 0.152009236131
4.89883798472 490 66982 10846716 0.183319964213
7.42761300449 950 151738 24533352 0.0122143615134
11.2617390321 2168 339421 55122880 0.036885617536
17.0750368861 4428 750643 122561080 -0.0358540776971
25.8891529834 10062 1636389 267724540 0.00602819531377
39.2531065478 21292 3465392 566301910 0.00411708347933
59.5155188986 42100 6871722 1123151204 0.0014859941363
90.2373672122 74632 12119679 1973443116 0.00272494319114
136.817801341 104638 16893386 2753602792 0.00952718123365
207.443006619 142574 23106454 3788109730 0.0114572628451
