#Theta DD DR RR XI factor=65.8180390397 
0.050323978983 0 12 1274 -0.239900264484
0.0763011640511 0 57 2902 -1.58554667489
0.115687744753 2 105 6902 0.25271520251
0.175405637024 2 247 15570 -0.531797222836
0.265949842531 16 546 34902 0.926621098423
0.403232871773 20 1214 79948 0.0848312211968
0.611381256445 46 2765 183314 0.101535617628
0.926975618552 114 6245 413576 0.206390889171
1.40547945874 260 14200 929514 0.200755878514
2.13098647839 530 32193 2113066 0.0810544004762
3.23099945918 1178 72719 4787384 0.0664356232956
4.89883798472 2820 165626 10846716 0.116223118018
7.42761300449 5852 374978 24533352 0.0213450726669
11.2617390321 13364 841951 55122880 0.0396349217625
17.0750368861 29064 1872330 122561080 0.0163229996859
25.8891529834 63950 4086028 267724540 0.025728501684
39.2531065478 133412 8631298 566301910 0.0142227657417
59.5155188986 263126 17109837 1123151204 0.00956678822793
90.2373672122 456072 29909536 1973443116 0.0060703592911
136.817801341 631302 41566385 2753602792 0.00609243969052
207.443006619 868598 57333090 3788109730 0.000999322442368
