#Theta DD DR RR XI factor=33.1920117674 
0.050323978983 0 25 1274 -0.302669221639
0.0763011640511 2 111 2902 -0.779878470719
0.115687744753 2 212 6902 -0.719790451903
0.175405637024 14 451 15570 0.0677418380312
0.265949842531 42 1055 34902 0.31914103111
0.403232871773 68 2388 79948 -0.0457896674054
0.611381256445 236 5511 183314 0.422636146497
0.926975618552 406 12420 413576 0.0879657998424
1.40547945874 1056 28337 929514 0.227855966011
2.13098647839 2040 64303 2113066 0.0434732331043
3.23099945918 4764 144390 4787384 0.0941515431781
4.89883798472 10618 329437 10846716 0.0622598997844
7.42761300449 23054 745067 24533352 0.0192236632271
11.2617390321 51706 1671110 55122880 0.0209146064896
17.0750368861 113240 3718228 122561080 0.00397960885284
25.8891529834 247660 8114770 267724540 0.00703285572035
39.2531065478 521990 17156420 566301910 0.00436364169761
59.5155188986 1034402 34009772 1123151204 0.00450194016714
90.2373672122 1799340 59561796 1973443116 0.000933232623371
136.817801341 2492092 82750645 2753602792 0.00212224503155
207.443006619 3444714 114158820 3788109730 0.00128364155321
